#        \hbar \omega(eV)           Re(1/eps)            -Im(1/eps)               Re(eps)                Im(eps)
     0.000000000000000E+00  -.133480855242047E+01  0.169080599889341E-08  -.749171106363272E+00  0.948977288570458E-09
     0.100000000000000E-02  -.133480863056620E+01  0.214102276123503E-04  -.749171062310661E+00  0.120166461299053E-04
     0.200000000000000E-02  -.133480886500350E+01  0.428187876400506E-04  -.749170930152864E+00  0.240323478554591E-04
     0.300000000000000E-02  -.133480925573263E+01  0.642273941104783E-04  -.749170709889828E+00  0.360480587270958E-04
     0.400000000000000E-02  -.133480980275398E+01  0.856360702451952E-04  -.749170401521478E+00  0.480637833180034E-04
     0.500000000000000E-02  -.133481050606816E+01  0.107044839266039E-03  -.749170005047693E+00  0.600795262014315E-04
     0.600000000000000E-02  -.133481136567590E+01  0.128453724395215E-03  -.749169520468329E+00  0.720952919507130E-04
     0.700000000000000E-02  -.133481238157812E+01  0.149862748855386E-03  -.749168947783209E+00  0.841110851392849E-04
     0.800000000000000E-02  -.133481355377591E+01  0.171271935869769E-03  -.749168286992118E+00  0.961269103407082E-04
     0.900000000000000E-02  -.133481488227050E+01  0.192681308662221E-03  -.749167538094811E+00  0.108142772128689E-03
     0.100000000000000E-01  -.133481636706334E+01  0.214090890457333E-03  -.749166701091006E+00  0.120158675077098E-03
     0.110000000000000E-01  -.133481800815597E+01  0.235500704480527E-03  -.749165775980403E+00  0.132174623759998E-03
     0.120000000000000E-01  -.133481980555016E+01  0.256910773958139E-03  -.749164762762651E+00  0.144190622751653E-03
     0.130000000000000E-01  -.133482175924783E+01  0.278321122117516E-03  -.749163661437377E+00  0.156206676626558E-03
     0.140000000000000E-01  -.133482386925104E+01  0.299731772187111E-03  -.749162472004172E+00  0.168222789959456E-03
     0.150000000000000E-01  -.133482613556206E+01  0.321142747396566E-03  -.749161194462594E+00  0.180238967325362E-03
     0.160000000000000E-01  -.133482855818330E+01  0.342554070976812E-03  -.749159828812170E+00  0.192255213299580E-03
     0.170000000000000E-01  -.133483113711732E+01  0.363965766160156E-03  -.749158375052397E+00  0.204271532457725E-03
     0.180000000000000E-01  -.133483387236689E+01  0.385377856180375E-03  -.749156833182734E+00  0.216287929375744E-03
     0.190000000000000E-01  -.133483676393491E+01  0.406790364272814E-03  -.749155203202604E+00  0.228304408629938E-03
     0.200000000000000E-01  -.133483981182447E+01  0.428203313674457E-03  -.749153485111409E+00  0.240320974796979E-03
     0.210000000000000E-01  -.133484301603882E+01  0.449616727624051E-03  -.749151678908511E+00  0.252337632453938E-03
     0.220000000000000E-01  -.133484637658135E+01  0.471030629362171E-03  -.749149784593239E+00  0.264354386178297E-03
     0.230000000000000E-01  -.133484989345567E+01  0.492445042131321E-03  -.749147802164890E+00  0.276371240547975E-03
     0.240000000000000E-01  -.133485356666551E+01  0.513859989176029E-03  -.749145731622732E+00  0.288388200141349E-03
     0.250000000000000E-01  -.133485739621478E+01  0.535275493742939E-03  -.749143572965991E+00  0.300405269537270E-03
     0.260000000000000E-01  -.133486138210757E+01  0.556691579080896E-03  -.749141326193872E+00  0.312422453315093E-03
     0.270000000000000E-01  -.133486552434812E+01  0.578108268441043E-03  -.749138991305542E+00  0.324439756054688E-03
     0.280000000000000E-01  -.133486982294085E+01  0.599525585076921E-03  -.749136568300132E+00  0.336457182336465E-03
     0.290000000000000E-01  -.133487427789033E+01  0.620943552244542E-03  -.749134057176743E+00  0.348474736741395E-03
     0.300000000000000E-01  -.133487888920132E+01  0.642362193202500E-03  -.749131457934444E+00  0.360492423851032E-03
     0.310000000000000E-01  -.133488365687872E+01  0.663781531212048E-03  -.749128770572274E+00  0.372510248247530E-03
     0.320000000000000E-01  -.133488858092762E+01  0.685201589537208E-03  -.749125995089231E+00  0.384528214513668E-03
     0.330000000000000E-01  -.133489366135326E+01  0.706622391444839E-03  -.749123131484291E+00  0.396546327232871E-03
     0.340000000000000E-01  -.133489889816106E+01  0.728043960204754E-03  -.749120179756387E+00  0.408564590989222E-03
     0.350000000000000E-01  -.133490429135659E+01  0.749466319089796E-03  -.749117139904429E+00  0.420583010367498E-03
     0.360000000000000E-01  -.133490984094561E+01  0.770889491375934E-03  -.749114011927284E+00  0.432601589953173E-03
     0.370000000000000E-01  -.133491554693403E+01  0.792313500342366E-03  -.749110795823794E+00  0.444620334332458E-03
     0.380000000000000E-01  -.133492140932794E+01  0.813738369271589E-03  -.749107491592761E+00  0.456639248092302E-03
     0.390000000000000E-01  -.133492742813356E+01  0.835164121449512E-03  -.749104099232970E+00  0.468658335820439E-03
     0.400000000000000E-01  -.133493360335732E+01  0.856590780165538E-03  -.749100618743152E+00  0.480677602105373E-03
     0.410000000000000E-01  -.133493993500581E+01  0.878018368712660E-03  -.749097050122021E+00  0.492697051536433E-03
     0.420000000000000E-01  -.133494642308579E+01  0.899446910387561E-03  -.749093393368246E+00  0.504716688703772E-03
     0.430000000000000E-01  -.133495306760414E+01  0.920876428490672E-03  -.749089648480477E+00  0.516736518198398E-03
     0.440000000000000E-01  -.133495986856797E+01  0.942306946326330E-03  -.749085815457319E+00  0.528756544612198E-03
     0.450000000000000E-01  -.133496682598453E+01  0.963738487202792E-03  -.749081894297352E+00  0.540776772537941E-03
     0.460000000000000E-01  -.133497393986121E+01  0.985171074432386E-03  -.749077884999123E+00  0.552797206569326E-03
     0.470000000000000E-01  -.133498121020562E+01  0.100660473133159E-02  -.749073787561137E+00  0.564817851300973E-03
     0.480000000000000E-01  -.133498863702551E+01  0.102803948122110E-02  -.749069601981877E+00  0.576838711328470E-03
     0.490000000000000E-01  -.133499622032880E+01  0.104947534742597E-02  -.749065328259787E+00  0.588859791248378E-03
     0.500000000000000E-01  -.133500396012356E+01  0.107091235327564E-02  -.749060966393280E+00  0.600881095658254E-03
     0.510000000000000E-01  -.133501185641805E+01  0.109235052210410E-02  -.749056516380742E+00  0.612902629156693E-03
     0.520000000000000E-01  -.133501990922069E+01  0.111378987724991E-02  -.749051978220515E+00  0.624924396343302E-03
     0.530000000000000E-01  -.133502811854008E+01  0.113523044205638E-02  -.749047351910914E+00  0.636946401818772E-03
     0.540000000000000E-01  -.133503648438496E+01  0.115667223987157E-02  -.749042637450221E+00  0.648968650184865E-03
     0.550000000000000E-01  -.133504500676425E+01  0.117811529404843E-02  -.749037834836688E+00  0.660991146044452E-03
     0.560000000000000E-01  -.133505368568705E+01  0.119955962794492E-02  -.749032944068523E+00  0.673013894001524E-03
     0.570000000000000E-01  -.133506252116261E+01  0.122100526492405E-02  -.749027965143917E+00  0.685036898661225E-03
     0.580000000000000E-01  -.133507151320036E+01  0.124245222835400E-02  -.749022898061020E+00  0.697060164629863E-03
     0.590000000000000E-01  -.133508066180989E+01  0.126390054160820E-02  -.749017742817947E+00  0.709083696514932E-03
     0.600000000000000E-01  -.133508996700095E+01  0.128535022806545E-02  -.749012499412782E+00  0.721107498925131E-03
     0.610000000000000E-01  -.133509942878348E+01  0.130680131110997E-02  -.749007167843579E+00  0.733131576470395E-03
     0.620000000000000E-01  -.133510904716757E+01  0.132825381413155E-02  -.749001748108353E+00  0.745155933761903E-03
     0.630000000000000E-01  -.133511882216349E+01  0.134970776052558E-02  -.748996240205090E+00  0.757180575412113E-03
     0.640000000000000E-01  -.133512875378165E+01  0.137116317369319E-02  -.748990644131748E+00  0.769205506034777E-03
     0.650000000000000E-01  -.133513884203267E+01  0.139262007704134E-02  -.748984959886239E+00  0.781230730244948E-03
     0.660000000000000E-01  -.133514908692730E+01  0.141407849398286E-02  -.748979187466457E+00  0.793256252659027E-03
     0.670000000000000E-01  -.133515948847649E+01  0.143553844793664E-02  -.748973326870251E+00  0.805282077894766E-03
     0.680000000000000E-01  -.133517004669132E+01  0.145699996232762E-02  -.748967378095445E+00  0.817308210571299E-03
     0.690000000000000E-01  -.133518076158307E+01  0.147846306058696E-02  -.748961341139825E+00  0.829334655309147E-03
     0.700000000000000E-01  -.133519163316317E+01  0.149992776615210E-02  -.748955216001151E+00  0.841361416730271E-03
     0.710000000000000E-01  -.133520266144325E+01  0.152139410246686E-02  -.748949002677130E+00  0.853388499458029E-03
     0.720000000000000E-01  -.133521384643505E+01  0.154286209298152E-02  -.748942701165470E+00  0.865415908117308E-03
     0.730000000000000E-01  -.133522518815053E+01  0.156433176115294E-02  -.748936311463814E+00  0.877443647334409E-03
     0.740000000000000E-01  -.133523668660179E+01  0.158580313044464E-02  -.748929833569793E+00  0.889471721737196E-03
     0.750000000000000E-01  -.133524834180111E+01  0.160727622432689E-02  -.748923267480990E+00  0.901500135955008E-03
     0.760000000000000E-01  -.133526015376096E+01  0.162875106627682E-02  -.748916613194961E+00  0.913528894618757E-03
     0.770000000000000E-01  -.133527212249391E+01  0.165022767977848E-02  -.748909870709240E+00  0.925558002360935E-03
     0.780000000000000E-01  -.133528424801277E+01  0.167170608832296E-02  -.748903040021309E+00  0.937587463815589E-03
     0.790000000000000E-01  -.133529653033048E+01  0.169318631540852E-02  -.748896121128625E+00  0.949617283618401E-03
     0.800000000000000E-01  -.133530896946017E+01  0.171466838454059E-02  -.748889114028614E+00  0.961647466406667E-03
     0.810000000000000E-01  -.133532156541512E+01  0.173615231923194E-02  -.748882018718674E+00  0.973678016819369E-03
     0.820000000000000E-01  -.133533431820878E+01  0.175763814300278E-02  -.748874835196153E+00  0.985708939497112E-03
     0.830000000000000E-01  -.133534722785479E+01  0.177912587938079E-02  -.748867563458378E+00  0.997740239082234E-03
     0.840000000000000E-01  -.133536029436694E+01  0.180061555190128E-02  -.748860203502642E+00  0.100977192021877E-02
     0.850000000000000E-01  -.133537351775918E+01  0.182210718410722E-02  -.748852755326206E+00  0.102180398755252E-02
     0.860000000000000E-01  -.133538689804565E+01  0.184360079954941E-02  -.748845218926294E+00  0.103383644573101E-02
     0.870000000000000E-01  -.133540043524065E+01  0.186509642178652E-02  -.748837594300100E+00  0.104586929940356E-02
     0.880000000000001E-01  -.133541412935864E+01  0.188659407438521E-02  -.748829881444778E+00  0.105790255322130E-02
     0.890000000000001E-01  -.133542798041427E+01  0.190809378092019E-02  -.748822080357455E+00  0.106993621183715E-02
     0.900000000000001E-01  -.133544198842233E+01  0.192959556497437E-02  -.748814191035231E+00  0.108197027990594E-02
     0.910000000000001E-01  -.133545615339780E+01  0.195109945013891E-02  -.748806213475161E+00  0.109400476208431E-02
     0.920000000000001E-01  -.133547047535584E+01  0.197260546001333E-02  -.748798147674265E+00  0.110603966303078E-02
     0.930000000000001E-01  -.133548495431174E+01  0.199411361820561E-02  -.748789993629546E+00  0.111807498740583E-02
     0.940000000000001E-01  -.133549959028100E+01  0.201562394833228E-02  -.748781751337957E+00  0.113011073987182E-02
     0.950000000000001E-01  -.133551438327926E+01  0.203713647401852E-02  -.748773420796426E+00  0.114214692509310E-02
     0.960000000000001E-01  -.133552933332235E+01  0.205865121889824E-02  -.748765002001845E+00  0.115418354773596E-02
     0.970000000000001E-01  -.133554444042625E+01  0.208016820661418E-02  -.748756494951080E+00  0.116622061246873E-02
     0.980000000000001E-01  -.133555970460713E+01  0.210168746081804E-02  -.748747899640947E+00  0.117825812396168E-02
     0.990000000000001E-01  -.133557512588132E+01  0.212320900517052E-02  -.748739216068247E+00  0.119029608688720E-02
     0.100000000000000E+00  -.133559070426531E+01  0.214473286334147E-02  -.748730444229737E+00  0.120233450591970E-02
     0.101000000000000E+00  -.133560643977577E+01  0.216625905900992E-02  -.748721584122145E+00  0.121437338573566E-02
     0.102000000000000E+00  -.133562233242955E+01  0.218778761586424E-02  -.748712635742159E+00  0.122641273101368E-02
     0.103000000000000E+00  -.133563838224364E+01  0.220931855760223E-02  -.748703599086443E+00  0.123845254643448E-02
     0.104000000000000E+00  -.133565458923523E+01  0.223085190793114E-02  -.748694474151622E+00  0.125049283668092E-02
     0.105000000000000E+00  -.133567095342167E+01  0.225238769056788E-02  -.748685260934286E+00  0.126253360643804E-02
     0.106000000000000E+00  -.133568747482045E+01  0.227392592923901E-02  -.748675959431004E+00  0.127457486039307E-02
     0.107000000000000E+00  -.133570415344929E+01  0.229546664768092E-02  -.748666569638290E+00  0.128661660323543E-02
     0.108000000000000E+00  -.133572098932605E+01  0.231700986963988E-02  -.748657091552637E+00  0.129865883965676E-02
     0.109000000000000E+00  -.133573798246873E+01  0.233855561887214E-02  -.748647525170512E+00  0.131070157435102E-02
     0.110000000000000E+00  -.133575513289554E+01  0.236010391914402E-02  -.748637870488337E+00  0.132274481201438E-02
     0.111000000000000E+00  -.133577244062486E+01  0.238165479423205E-02  -.748628127502502E+00  0.133478855734533E-02
     0.112000000000000E+00  -.133578990567521E+01  0.240320826792304E-02  -.748618296209362E+00  0.134683281504467E-02
     0.113000000000000E+00  -.133580752806532E+01  0.242476436401413E-02  -.748608376605247E+00  0.135887758981555E-02
     0.114000000000000E+00  -.133582530781405E+01  0.244632310631295E-02  -.748598368686447E+00  0.137092288636349E-02
     0.115000000000000E+00  -.133584324494045E+01  0.246788451863773E-02  -.748588272449218E+00  0.138296870939639E-02
     0.116000000000000E+00  -.133586133946376E+01  0.248944862481731E-02  -.748578087889785E+00  0.139501506362454E-02
     0.117000000000000E+00  -.133587959140336E+01  0.251101544869134E-02  -.748567815004337E+00  0.140706195376067E-02
     0.118000000000000E+00  -.133589800077881E+01  0.253258501411028E-02  -.748557453789031E+00  0.141910938451995E-02
     0.119000000000000E+00  -.133591656760984E+01  0.255415734493558E-02  -.748547004239993E+00  0.143115736062006E-02
     0.120000000000000E+00  -.133593529191636E+01  0.257573246503972E-02  -.748536466353308E+00  0.144320588678111E-02
     0.121000000000000E+00  -.133595417371845E+01  0.259731039830636E-02  -.748525840125030E+00  0.145525496772577E-02
     0.122000000000000E+00  -.133597321303634E+01  0.261889116863037E-02  -.748515125551186E+00  0.146730460817924E-02
     0.123000000000000E+00  -.133599240989047E+01  0.264047479991797E-02  -.748504322627761E+00  0.147935481286926E-02
     0.124000000000000E+00  -.133601176430141E+01  0.266206131608687E-02  -.748493431350713E+00  0.149140558652621E-02
     0.125000000000000E+00  -.133603127628993E+01  0.268365074106626E-02  -.748482451715956E+00  0.150345693388298E-02
     0.126000000000000E+00  -.133605094587696E+01  0.270524309879701E-02  -.748471383719381E+00  0.151550885967515E-02
     0.127000000000000E+00  -.133607077308360E+01  0.272683841323168E-02  -.748460227356840E+00  0.152756136864094E-02
     0.128000000000000E+00  -.133609075793113E+01  0.274843670833472E-02  -.748448982624152E+00  0.153961446552123E-02
     0.129000000000000E+00  -.133611090044099E+01  0.277003800808247E-02  -.748437649517105E+00  0.155166815505960E-02
     0.130000000000000E+00  -.133613120063480E+01  0.279164233646332E-02  -.748426228031443E+00  0.156372244200231E-02
     0.131000000000000E+00  -.133615165853435E+01  0.281324971747780E-02  -.748414718162894E+00  0.157577733109842E-02
     0.132000000000000E+00  -.133617227416160E+01  0.283486017513863E-02  -.748403119907133E+00  0.158783282709969E-02
     0.133000000000000E+00  -.133619304753869E+01  0.285647373347089E-02  -.748391433259816E+00  0.159988893476067E-02
     0.134000000000000E+00  -.133621397868792E+01  0.287809041651207E-02  -.748379658216555E+00  0.161194565883875E-02
     0.135000000000000E+00  -.133623506763177E+01  0.289971024831220E-02  -.748367794772929E+00  0.162400300409409E-02
     0.136000000000000E+00  -.133625631439289E+01  0.292133325293391E-02  -.748355842924494E+00  0.163606097528974E-02
     0.137000000000000E+00  -.133627771899410E+01  0.294295945445257E-02  -.748343802666758E+00  0.164811957719161E-02
     0.138000000000000E+00  -.133629928145840E+01  0.296458887695636E-02  -.748331673995202E+00  0.166017881456847E-02
     0.139000000000000E+00  -.133632100180896E+01  0.298622154454639E-02  -.748319456905271E+00  0.167223869219204E-02
     0.140000000000000E+00  -.133634288006911E+01  0.300785748133676E-02  -.748307151392382E+00  0.168429921483697E-02
     0.141000000000000E+00  -.133636491626238E+01  0.302949671145477E-02  -.748294757451901E+00  0.169636038728084E-02
     0.142000000000000E+00  -.133638711041243E+01  0.305113925904082E-02  -.748282275079187E+00  0.170842221430427E-02
     0.143000000000000E+00  -.133640946254314E+01  0.307278514824872E-02  -.748269704269536E+00  0.172048470069080E-02
     0.144000000000000E+00  -.133643197267853E+01  0.309443440324568E-02  -.748257045018230E+00  0.173254785122708E-02
     0.145000000000000E+00  -.133645464084282E+01  0.311608704821238E-02  -.748244297320511E+00  0.174461167070274E-02
     0.146000000000000E+00  -.133647746706037E+01  0.313774310734321E-02  -.748231461171583E+00  0.175667616391053E-02
     0.147000000000000E+00  -.133650045135575E+01  0.315940260484619E-02  -.748218536566615E+00  0.176874133564625E-02
     0.148000000000000E+00  -.133652359375366E+01  0.318106556494318E-02  -.748205523500756E+00  0.178080719070884E-02
     0.149000000000000E+00  -.133654689427902E+01  0.320273201187002E-02  -.748192421969102E+00  0.179287373390040E-02
     0.150000000000000E+00  -.133657035295688E+01  0.322440196987649E-02  -.748179231966728E+00  0.180494097002615E-02
     0.151000000000000E+00  -.133659396981252E+01  0.324607546322654E-02  -.748165953488663E+00  0.181700890389450E-02
     0.152000000000000E+00  -.133661774487133E+01  0.326775251619831E-02  -.748152586529913E+00  0.182907754031707E-02
     0.153000000000000E+00  -.133664167815891E+01  0.328943315308430E-02  -.748139131085446E+00  0.184114688410873E-02
     0.154000000000000E+00  -.133666576970103E+01  0.331111739819139E-02  -.748125587150194E+00  0.185321694008759E-02
     0.155000000000000E+00  -.133669001952363E+01  0.333280527584102E-02  -.748111954719053E+00  0.186528771307500E-02
     0.156000000000000E+00  -.133671442765281E+01  0.335449681036923E-02  -.748098233786892E+00  0.187735920789566E-02
     0.157000000000000E+00  -.133673899411489E+01  0.337619202612683E-02  -.748084424348534E+00  0.188943142937755E-02
     0.158000000000000E+00  -.133676371893631E+01  0.339789094747939E-02  -.748070526398777E+00  0.190150438235199E-02
     0.159000000000000E+00  -.133678860214372E+01  0.341959359880749E-02  -.748056539932383E+00  0.191357807165373E-02
     0.160000000000000E+00  -.133681364376392E+01  0.344130000450667E-02  -.748042464944075E+00  0.192565250212080E-02
     0.161000000000000E+00  -.133683884382392E+01  0.346301018898765E-02  -.748028301428547E+00  0.193772767859473E-02
     0.162000000000000E+00  -.133686420235085E+01  0.348472417667636E-02  -.748014049380456E+00  0.194980360592045E-02
     0.163000000000000E+00  -.133688971937208E+01  0.350644199201411E-02  -.747999708794420E+00  0.196188028894634E-02
     0.164000000000000E+00  -.133691539491510E+01  0.352816365945761E-02  -.747985279665033E+00  0.197395773252427E-02
     0.165000000000000E+00  -.133694122900761E+01  0.354988920347913E-02  -.747970761986847E+00  0.198603594150962E-02
     0.166000000000000E+00  -.133696722167746E+01  0.357161864856657E-02  -.747956155754377E+00  0.199811492076128E-02
